# r/R [-]     Fn [N/m]     Ft [N/m]
4.937499999999999528e-02 9.062189596324695628e+01 -3.885237438035309765e+01
9.812499999999999001e-02 3.003364003264275084e+02 1.021509303127674855e+02
1.468750000000000056e-01 1.222584615720081956e+03 6.034943630005278692e+02
1.956249999999999933e-01 1.987539389115903759e+03 7.510318348942487319e+02
2.443749999999999811e-01 2.788139896065028097e+03 8.623622938173725743e+02
2.931249999999999689e-01 3.377959611835729902e+03 8.614784003306652949e+02
3.418749999999999289e-01 3.923437434349597879e+03 8.560904862658163665e+02
3.906249999999999445e-01 4.440927456924106082e+03 8.442027724084795182e+02
4.393749999999999600e-01 4.984450827486823982e+03 8.432604033929330853e+02
4.881249999999999756e-01 5.511791256214701207e+03 8.365547097653810624e+02
5.368749999999999911e-01 6.035405533096596628e+03 8.281654573775940662e+02
5.856249999999999512e-01 6.588647333105679536e+03 8.309502114454792263e+02
6.343749999999999112e-01 7.095817658219124496e+03 8.215855594466411276e+02
6.831249999999999822e-01 7.622709399709875470e+03 8.182263130630126398e+02
7.318749999999999423e-01 8.224311125543439630e+03 8.195162210489581867e+02
7.806250000000000133e-01 8.896072199459280455e+03 8.202665623238852959e+02
8.293749999999999734e-01 9.360085019246020238e+03 8.112837415946484043e+02
8.781249999999999334e-01 9.327663711514927854e+03 7.715336469082802751e+02
9.268750000000000044e-01 8.967620376993849277e+03 7.214743191665944551e+02
9.756249999999998535e-01 8.356088599873863132e+03 6.876164448398852755e+02
